# Reference for volatility.atr.1h@1 and volatility.regime.1h@1 (ADR-033)
# input: btcusdt-1h-2024-07-08.csv (1488 consecutive 1h bars)
# atr: Pine v5 ta.atr(14) = ta.rma(ta.tr(true), 14), exact, rounded half to even to 12 decimals
# percentile: Pine v5 ta.percentrank(atr, 200); label: ADR-017 bands, upper-closed
# smallest compared ATR difference: 0.000211311104
# open_time_ms	atr	percentile	label
1719792000000	-	-	-
1719795600000	-	-	-
1719799200000	-	-	-
1719802800000	-	-	-
1719806400000	-	-	-
1719810000000	-	-	-
1719813600000	-	-	-
1719817200000	-	-	-
1719820800000	-	-	-
1719824400000	-	-	-
1719828000000	-	-	-
1719831600000	-	-	-
1719835200000	-	-	-
1719838800000	349.835714285714	-	-
1719842400000	349.004591836735	-	-
1719846000000	351.197120991254	-	-
1719849600000	354.454469491878	-	-
1719853200000	375.414864528173	-	-
1719856800000	379.778088490446	-	-
1719860400000	395.001082169700	-	-
1719864000000	386.608147729007	-	-
1719867600000	377.907565748364	-	-
1719871200000	377.157025337766	-	-
1719874800000	365.710094956497	-	-
1719878400000	354.559373888176	-	-
1719882000000	340.583704324735	-	-
1719885600000	330.906296872968	-	-
1719889200000	329.341561382042	-	-
1719892800000	320.788592711896	-	-
1719896400000	305.817978946761	-	-
1719900000000	299.666694736278	-	-
1719903600000	299.590502255115	-	-
1719907200000	304.119752094035	-	-
1719910800000	294.475484087319	-	-
1719914400000	294.370092366796	-	-
1719918000000	290.915085769168	-	-
1719921600000	294.306865357084	-	-
1719925200000	320.956374974435	-	-
1719928800000	358.602348190547	-	-
1719932400000	355.037894748365	-	-
1719936000000	345.728045123482	-	-
1719939600000	341.018899043233	-	-
1719943200000	332.903263397288	-	-
1719946800000	343.545887440339	-	-
1719950400000	334.321181194600	-	-
1719954000000	324.219668252129	-	-
1719957600000	312.932549091263	-	-
1719961200000	298.501652727601	-	-
1719964800000	291.637248961344	-	-
1719968400000	355.113159749819	-	-
1719972000000	357.590791196261	-	-
1719975600000	386.720020396528	-	-
1719979200000	372.061447511061	-	-
1719982800000	365.278486974557	-	-
1719986400000	354.030023619232	-	-
1719990000000	342.427879075001	-	-
1719993600000	367.061601998215	-	-
1719997200000	367.035773284057	-	-
1720000800000	419.776075192338	-	-
1720004400000	416.792069821457	-	-
1720008000000	421.649779119924	-	-
1720011600000	454.281937754216	-	-
1720015200000	453.461799343200	-	-
1720018800000	456.643099390114	-	-
1720022400000	464.625735147963	-	-
1720026000000	454.938182637395	-	-
1720029600000	437.671169591866	-	-
1720033200000	449.344657478162	-	-
1720036800000	439.934324801150	-	-
1720040400000	482.839015886782	-	-
1720044000000	465.614800466298	-	-
1720047600000	444.335171861562	-	-
1720051200000	431.675516728594	-	-
1720054800000	551.698694105123	-	-
1720058400000	618.120215954757	-	-
1720062000000	596.211629100845	-	-
1720065600000	584.296512736499	-	-
1720069200000	555.275333255321	-	-
1720072800000	555.469952308512	-	-
1720076400000	569.957812857904	-	-
1720080000000	635.282254796625	-	-
1720083600000	657.062093739724	-	-
1720087200000	648.586229901172	-	-
1720090800000	632.915784908231	-	-
1720094400000	630.736085986214	-	-
1720098000000	638.183508415771	-	-
1720101600000	642.620400671787	-	-
1720105200000	669.083229195231	-	-
1720108800000	668.741569967000	-	-
1720112400000	642.188600683643	-	-
1720116000000	628.217986349097	-	-
1720119600000	621.273844467019	-	-
1720123200000	593.647141290803	-	-
1720126800000	577.615202627174	-	-
1720130400000	595.049831010947	-	-
1720134000000	662.824843081594	-	-
1720137600000	679.458782861480	-	-
1720141200000	677.104584085660	-	-
1720144800000	762.875685222399	-	-
1720148400000	782.905993420799	-	-
1720152000000	871.305565319313	-	-
1720155600000	880.705167796505	-	-
1720159200000	883.404798668183	-	-
1720162800000	854.990170191885	-	-
1720166400000	822.790872321036	-	-
1720170000000	824.641524298105	-	-
1720173600000	834.767129705383	-	-
1720177200000	822.726620440713	-	-
1720180800000	836.753290409233	-	-
1720184400000	850.156626808574	-	-
1720188000000	828.038296322247	-	-
1720191600000	842.492703727801	-	-
1720195200000	838.700367747244	-	-
1720198800000	830.721770051012	-	-
1720202400000	837.834500761654	-	-
1720206000000	808.032036421536	-	-
1720209600000	764.965462391426	-	-
1720213200000	742.525072220610	-	-
1720216800000	713.958995633423	-	-
1720220400000	681.604781659607	-	-
1720224000000	679.125868683921	-	-
1720227600000	660.124020920784	-	-
1720231200000	636.150876569299	-	-
1720234800000	608.925813957207	-	-
1720238400000	592.702541531692	-	-
1720242000000	584.709502850857	-	-
1720245600000	559.180252647224	-	-
1720249200000	539.881663172422	-	-
1720252800000	512.104401517249	-	-
1720256400000	499.611229980303	-	-
1720260000000	480.353284981710	-	-
1720263600000	455.913764625873	-	-
1720267200000	443.869924295454	-	-
1720270800000	463.164929702922	-	-
1720274400000	459.731720438427	-	-
1720278000000	464.008026121397	-	-
1720281600000	498.000309969868	-	-
1720285200000	482.400287829163	-	-
1720288800000	467.943124412795	-	-
1720292400000	449.425758383309	-	-
1720296000000	446.245347070216	-	-
1720299600000	447.027822279486	-	-
1720303200000	433.154406402380	-	-
1720306800000	430.014805945067	-	-
1720310400000	426.956605520419	-	-
1720314000000	430.745419411818	-	-
1720317600000	425.006460882402	-	-
1720321200000	431.398856533659	-	-
1720324800000	431.677509638398	-	-
1720328400000	429.814830378512	-	-
1720332000000	412.763771065762	-	-
1720335600000	428.766358846779	-	-
1720339200000	419.804476072009	-	-
1720342800000	402.511299209722	-	-
1720346400000	404.131920694742	-	-
1720350000000	389.336783502261	-	-
1720353600000	391.512727537813	-	-
1720357200000	405.604675570827	-	-
1720360800000	402.690055887196	-	-
1720364400000	398.412194752397	-	-
1720368000000	400.454180841511	-	-
1720371600000	407.814596495689	-	-
1720375200000	398.492125317425	-	-
1720378800000	382.814116366181	-	-
1720382400000	375.748822340025	-	-
1720386000000	426.931049315737	-	-
1720389600000	425.364545793185	-	-
1720393200000	453.467078236529	-	-
1720396800000	492.076572648205	-	-
1720400400000	517.471103173333	-	-
1720404000000	541.423167232381	-	-
1720407600000	547.007226715782	-	-
1720411200000	557.235281950369	-	-
1720414800000	547.932761811057	-	-
1720418400000	558.844707395982	-	-
1720422000000	543.291514010554	-	-
1720425600000	658.827834438372	-	-
1720429200000	673.668703407060	-	-
1720432800000	698.049510306555	-	-
1720436400000	690.903116713230	-	-
1720440000000	698.067179805142	-	-
1720443600000	695.405238390489	-	-
1720447200000	816.483435648311	-	-
1720450800000	835.748904530575	-	-
1720454400000	825.916839921248	-	-
1720458000000	823.529922784016	-	-
1720461600000	794.084928299444	-	-
1720465200000	766.193147706626	-	-
1720468800000	738.650780013296	-	-
1720472400000	730.147152869489	-	-
1720476000000	708.350927664525	-	-
1720479600000	676.247289974202	-	-
1720483200000	663.015340690331	-	-
1720486800000	676.035673498164	-	-
1720490400000	702.440268248295	-	-
1720494000000	681.323106230560	-	-
1720497600000	651.657170071234	-	-
1720501200000	628.745943637575	-	-
1720504800000	625.421233377748	-	-
1720508400000	618.526859565052	-	-
1720512000000	638.624941024691	-	-
1720515600000	606.416016665784	-	-
1720519200000	590.414872618228	-	-
1720522800000	572.063810288355	-	-
1720526400000	552.423538124901	-	-
1720530000000	546.507571115979	-	-
1720533600000	587.685601750552	-	-
1720537200000	589.758058768370	-	-
1720540800000	585.503911713486	-	-
1720544400000	574.775060876809	-	-
1720548000000	595.983985099894	-	-
1720551600000	571.435129021330	-	-
1720555200000	558.989762662664	-	-
1720558800000	535.326208186759	51.0	HIGH
1720562400000	536.745764744848	51.0	HIGH
1720566000000	516.621067263073	49.5	MEDIUM
1720569600000	524.162419601425	50.0	MEDIUM
1720573200000	534.422246772752	50.0	MEDIUM
1720576800000	516.720657717555	48.5	MEDIUM
1720580400000	506.376325023444	47.0	MEDIUM
1720584000000	561.378016093198	58.0	HIGH
1720587600000	567.679586372255	58.0	HIGH
1720591200000	561.331044488523	57.0	HIGH
1720594800000	552.550255596485	53.5	HIGH
1720598400000	544.289523053879	50.5	HIGH
1720602000000	532.425985692888	47.0	MEDIUM
1720605600000	523.966986714825	46.0	MEDIUM
1720609200000	513.326487663766	44.0	MEDIUM
1720612800000	535.910309973497	48.0	MEDIUM
1720616400000	556.659573546818	54.5	HIGH
1720620000000	546.133889722046	50.0	MEDIUM
1720623600000	549.124326170471	51.5	HIGH
1720627200000	541.208302872580	47.5	MEDIUM
1720630800000	525.250566953110	44.0	MEDIUM
1720634400000	509.746955027888	40.0	MEDIUM
1720638000000	492.836458240182	38.0	MEDIUM
1720641600000	486.848139794454	37.0	MEDIUM
1720645200000	473.151844094851	35.0	MEDIUM
1720648800000	470.219569516647	34.5	MEDIUM
1720652400000	456.703885979744	31.0	MEDIUM
1720656000000	449.617894124048	27.5	MEDIUM
1720659600000	483.073758829473	36.5	MEDIUM
1720663200000	496.211347484510	38.0	MEDIUM
1720666800000	525.581965521331	44.0	MEDIUM
1720670400000	509.740396555522	39.0	MEDIUM
1720674000000	501.701796801556	38.0	MEDIUM
1720677600000	482.273097030016	33.0	MEDIUM
1720681200000	475.160732956444	32.0	MEDIUM
1720684800000	462.377823459555	28.0	MEDIUM
1720688400000	452.600836069587	23.5	LOW
1720692000000	444.272204921759	20.0	LOW
1720695600000	449.609904570205	22.5	LOW
1720699200000	510.273482815190	39.5	MEDIUM
1720702800000	526.968234042677	44.0	MEDIUM
1720706400000	571.499074468200	59.0	HIGH
1720710000000	591.241997720471	63.5	HIGH
1720713600000	589.517569311866	62.0	HIGH
1720717200000	573.294885789590	58.5	HIGH
1720720800000	555.173822518905	51.0	HIGH
1720724400000	552.939978053269	50.5	HIGH
1720728000000	541.587122478035	45.0	MEDIUM
1720731600000	524.702328015319	39.0	MEDIUM
1720735200000	515.902161728510	36.0	MEDIUM
1720738800000	496.959150176474	31.0	MEDIUM
1720742400000	492.283496592440	29.5	MEDIUM
1720746000000	516.234675407266	36.0	MEDIUM
1720749600000	518.053627163889	37.5	MEDIUM
1720753200000	518.599796652183	37.5	MEDIUM
1720756800000	506.942668319884	31.5	MEDIUM
1720760400000	482.639620582750	25.0	LOW
1720764000000	475.315361969696	23.5	LOW
1720767600000	475.742836114718	23.5	LOW
1720771200000	464.989776392238	20.5	LOW
1720774800000	464.990506649935	20.5	LOW
1720778400000	462.748327603511	19.0	LOW
1720782000000	445.473447060403	13.5	LOW
1720785600000	441.925343698946	12.5	LOW
1720789200000	457.459247720450	19.0	LOW
1720792800000	449.297872883275	15.5	LOW
1720796400000	453.719453391612	18.5	LOW
1720800000000	456.646635292211	19.5	LOW
1720803600000	450.957589914196	17.5	LOW
1720807200000	452.003476348897	18.0	LOW
1720810800000	483.517513752547	31.0	MEDIUM
1720814400000	485.780548484508	31.5	MEDIUM
1720818000000	464.010509307043	24.5	LOW
1720821600000	453.331187213683	19.0	LOW
1720825200000	435.450388126991	12.5	LOW
1720828800000	417.589646117920	6.5	LOW
1720832400000	400.068957109497	3.0	LOW
1720836000000	385.564031601676	1.0	LOW
1720839600000	372.509457915842	0.0	LOW
1720843200000	352.287353778996	0.0	LOW
1720846800000	356.488257080497	0.5	LOW
1720850400000	346.953381574747	0.0	LOW
1720854000000	332.885282890836	0.0	LOW
1720857600000	328.622048398634	0.0	LOW
1720861200000	377.841902084446	3.5	LOW
1720864800000	380.360337649842	4.0	LOW
1720868400000	369.563170674854	2.5	LOW
1720872000000	376.380087055221	4.0	LOW
1720875600000	367.510080836991	2.5	LOW
1720879200000	365.102217920063	2.5	LOW
1720882800000	352.737773782916	2.0	LOW
1720886400000	354.742218512708	2.5	LOW
1720890000000	339.932060047514	1.0	LOW
1720893600000	332.865484329835	0.5	LOW
1720897200000	319.596521163418	0.0	LOW
1720900800000	304.503912508888	0.0	LOW
1720904400000	291.803633043967	0.0	LOW
1720908000000	365.267659255113	6.5	LOW
1720911600000	392.748540736890	12.5	LOW
1720915200000	407.709359255684	17.0	LOW
1720918800000	408.337262165992	18.0	LOW
1720922400000	412.884600582707	19.0	LOW
1720926000000	400.521414826799	15.0	LOW
1720929600000	421.955599482028	21.0	LOW
1720933200000	429.573056661883	24.0	LOW
1720936800000	436.882124043177	28.0	MEDIUM
1720940400000	427.776258040093	23.5	LOW
1720944000000	423.363668180086	21.5	LOW
1720947600000	410.730549024366	19.0	LOW
1720951200000	405.056938379768	17.0	LOW
1720954800000	391.374299924071	12.0	LOW
1720958400000	401.240421358066	16.0	LOW
1720962000000	386.666105546775	11.5	LOW
1720965600000	414.904240864863	22.5	LOW
1720969200000	405.432509374515	19.0	LOW
1720972800000	393.080187276336	14.0	LOW
1720976400000	384.353031042312	11.0	LOW
1720980000000	367.584957396432	7.5	LOW
1720983600000	350.757460439544	4.0	LOW
1720987200000	363.560498979577	6.5	LOW
1720990800000	439.377606195321	35.5	MEDIUM
1720994400000	453.636348609941	43.0	MEDIUM
1720998000000	454.905180852088	44.0	MEDIUM
1721001600000	470.404810791225	49.5	MEDIUM
1721005200000	482.497324306137	53.0	HIGH
1721008800000	542.776086855699	72.0	HIGH
1721012400000	538.506366366006	70.0	HIGH
1721016000000	530.298768768434	67.0	HIGH
1721019600000	524.570285284975	64.5	HIGH
1721023200000	509.072407764619	57.5	HIGH
1721026800000	498.360092924289	55.5	HIGH
1721030400000	496.520086286840	54.5	HIGH
1721034000000	486.297222980637	51.5	HIGH
1721037600000	481.225992767735	48.0	MEDIUM
1721041200000	469.766993284325	44.5	MEDIUM
1721044800000	461.776493764016	41.5	MEDIUM
1721048400000	465.421029923729	44.0	MEDIUM
1721052000000	467.540956357749	44.0	MEDIUM
1721055600000	468.002316617909	44.0	MEDIUM
1721059200000	489.373579716630	52.0	HIGH
1721062800000	501.311181165442	55.5	HIGH
1721066400000	511.031811082196	59.0	HIGH
1721070000000	519.315253147754	63.0	HIGH
1721073600000	520.121306494343	63.0	HIGH
1721077200000	504.019784601890	54.5	HIGH
1721080800000	561.796942844612	80.5	EXTREME
1721084400000	570.604304069997	81.0	EXTREME
1721088000000	567.782568064997	80.5	EXTREME
1721091600000	555.448098917497	76.0	EXTREME
1721095200000	538.066091851962	67.5	HIGH
1721098800000	518.254228148250	59.0	HIGH
1721102400000	520.478926137661	60.5	HIGH
1721106000000	561.080431413542	78.0	EXTREME
1721109600000	599.353257741146	87.0	EXTREME
1721113200000	601.628025045350	87.0	EXTREME
1721116800000	609.654594684968	87.5	EXTREME
1721120400000	607.093552207470	87.0	EXTREME
1721124000000	605.744012764080	86.0	EXTREME
1721127600000	614.962297566645	87.5	EXTREME
1721131200000	620.543562026171	88.0	EXTREME
1721134800000	626.626164738587	88.5	EXTREME
1721138400000	642.402867257259	89.5	EXTREME
1721142000000	680.602662453169	92.5	EXTREME
1721145600000	703.952472277943	95.5	EXTREME
1721149200000	692.498724258090	93.0	EXTREME
1721152800000	679.448815382512	91.0	EXTREME
1721156400000	674.123899998047	90.0	EXTREME
1721160000000	666.729335712472	90.0	EXTREME
1721163600000	645.634383161581	89.0	EXTREME
1721167200000	637.196212935754	88.0	EXTREME
1721170800000	649.796483440343	90.0	EXTREME
1721174400000	653.311020337461	91.0	EXTREME
1721178000000	656.710233170500	91.5	EXTREME
1721181600000	636.095216515464	88.0	EXTREME
1721185200000	620.531272478645	86.0	EXTREME
1721188800000	599.250467301599	82.0	EXTREME
1721192400000	585.018291065771	78.5	EXTREME
1721196000000	566.638413132501	74.5	HIGH
1721199600000	553.599955051608	70.5	HIGH
1721203200000	562.514243976494	75.0	HIGH
1721206800000	552.906083692458	70.0	HIGH
1721210400000	532.134220571568	62.0	HIGH
1721214000000	536.596061959314	64.5	HIGH
1721217600000	529.503486105077	61.5	HIGH
1721221200000	549.574665669000	70.5	HIGH
1721224800000	551.569332406928	71.0	HIGH
1721228400000	568.471522949291	80.0	EXTREME
1721232000000	593.766414167199	87.0	EXTREME
1721235600000	586.604527440970	84.5	EXTREME
1721239200000	570.239918338044	80.5	EXTREME
1721242800000	551.544209885326	71.0	HIGH
1721246400000	525.726766322089	61.0	HIGH
1721250000000	525.124854441939	60.0	HIGH
1721253600000	512.115936267515	52.5	HIGH
1721257200000	496.621940819836	46.5	MEDIUM
1721260800000	506.056087904133	49.5	MEDIUM
1721264400000	492.466367339552	45.0	MEDIUM
1721268000000	526.133055386727	64.0	HIGH
1721271600000	513.109265716246	54.5	HIGH
1721275200000	501.265746736515	48.5	MEDIUM
1721278800000	499.739621969621	48.5	MEDIUM
1721282400000	489.936791828933	44.5	MEDIUM
1721286000000	482.277020984010	40.5	MEDIUM
1721289600000	471.150090913723	37.5	MEDIUM
1721293200000	453.767941562743	29.5	MEDIUM
1721296800000	447.563088593976	25.0	LOW
1721300400000	438.501439408692	23.0	LOW
1721304000000	428.708479450928	21.5	LOW
1721307600000	443.107873775862	25.0	LOW
1721311200000	483.721597077586	46.0	MEDIUM
1721314800000	492.491483000615	50.0	MEDIUM
1721318400000	500.620662786286	54.0	HIGH
1721322000000	498.347758301551	53.0	HIGH
1721325600000	487.037204137155	48.0	MEDIUM
1721329200000	489.327403841644	48.5	MEDIUM
1721332800000	484.011160710098	46.5	MEDIUM
1721336400000	461.017506373662	34.0	MEDIUM
1721340000000	457.751970204115	34.0	MEDIUM
1721343600000	435.441115189535	22.5	LOW
1721347200000	438.631035533140	24.5	LOW
1721350800000	448.214532995058	28.0	MEDIUM
1721354400000	438.163494923983	24.0	LOW
1721358000000	446.708959572270	28.0	MEDIUM
1721361600000	432.444033888536	22.5	LOW
1721365200000	413.712317182212	19.0	LOW
1721368800000	409.754294526340	18.0	LOW
1721372400000	424.764702060173	22.0	LOW
1721376000000	435.524366198732	25.5	MEDIUM
1721379600000	439.179768613108	28.0	MEDIUM
1721383200000	444.659785140743	30.5	MEDIUM
1721386800000	431.505514773547	24.0	LOW
1721390400000	429.247978004008	23.5	LOW
1721394000000	490.723122432293	55.5	HIGH
1721397600000	520.100042258558	69.0	HIGH
1721401200000	523.521467811518	70.0	HIGH
1721404800000	537.127077253553	75.0	HIGH
1721408400000	541.239428878299	76.0	EXTREME
1721412000000	530.272326815563	72.5	HIGH
1721415600000	536.431446328737	73.5	HIGH
1721419200000	521.586343019542	67.5	HIGH
1721422800000	518.101604232432	64.0	HIGH
1721426400000	505.608632501544	59.5	HIGH
1721430000000	490.393730180005	52.5	HIGH
1721433600000	495.994178024290	55.0	HIGH
1721437200000	497.530308165412	57.0	HIGH
1721440800000	484.271000439311	49.5	MEDIUM
1721444400000	464.623071836503	41.0	MEDIUM
1721448000000	448.442852419610	33.5	MEDIUM
1721451600000	432.654077246781	25.5	MEDIUM
1721455200000	413.928786014868	20.0	LOW
1721458800000	401.462444156663	16.0	LOW
1721462400000	386.107983859759	12.5	LOW
1721466000000	377.385985012633	10.5	LOW
1721469600000	362.879843226016	6.5	LOW
1721473200000	343.552711567015	3.5	LOW
1721476800000	326.656089312228	1.5	LOW
1721480400000	330.544940075641	2.5	LOW
1721484000000	321.848872927381	1.5	LOW
1721487600000	316.773953432568	1.0	LOW
1721491200000	320.432956758813	2.0	LOW
1721494800000	363.323459847469	10.0	LOW
1721498400000	363.643212715507	11.0	LOW
1721502000000	364.711554664399	11.5	LOW
1721505600000	355.096443616942	9.0	LOW
1721509200000	371.068126215732	15.0	LOW
1721512800000	377.941831486037	17.5	LOW
1721516400000	358.481700665606	10.0	LOW
1721520000000	359.483007760920	10.5	LOW
1721523600000	362.591364349425	11.0	LOW
1721527200000	346.234838324466	6.5	LOW
1721530800000	338.203778444147	5.5	LOW
1721534400000	330.674937126708	4.5	LOW
1721538000000	322.633870189086	3.0	LOW
1721541600000	334.288593747009	6.5	LOW
1721545200000	327.332265622222	4.0	LOW
1721548800000	319.594246649206	1.5	LOW
1721552400000	316.237514745692	1.0	LOW
1721556000000	313.156263692428	1.0	LOW
1721559600000	300.852244857255	0.5	LOW
1721563200000	290.369941653165	0.0	LOW
1721566800000	295.607802963653	1.0	LOW
1721570400000	327.057245609107	7.0	LOW
1721574000000	343.424585208456	12.0	LOW
1721577600000	367.544257693566	20.5	LOW
1721581200000	435.633953572597	40.0	MEDIUM
1721584800000	516.802956888840	68.5	HIGH
1721588400000	547.581317111066	80.0	EXTREME
1721592000000	576.968365888847	87.0	EXTREME
1721595600000	590.742054039644	88.0	EXTREME
1721599200000	580.631907322526	86.5	EXTREME
1721602800000	562.201056799489	82.5	EXTREME
1721606400000	554.779552742382	80.5	EXTREME
1721610000000	551.423870403641	78.0	EXTREME
1721613600000	544.893593946238	76.5	EXTREME
1721617200000	526.029765807221	70.0	HIGH
1721620800000	506.741925392419	61.5	HIGH
1721624400000	502.674645007247	59.5	HIGH
1721628000000	510.947884649586	62.0	HIGH
1721631600000	490.708750031759	52.0	HIGH
1721635200000	482.336696458061	46.5	MEDIUM
1721638800000	482.941218139629	47.0	MEDIUM
1721642400000	464.688273986798	41.5	MEDIUM
1721646000000	453.739111559169	38.0	MEDIUM
1721649600000	445.079175019229	35.0	MEDIUM
1721653200000	483.244948232141	47.0	MEDIUM
1721656800000	500.134594786988	57.0	HIGH
1721660400000	509.474980873632	61.5	HIGH
1721664000000	509.805339382658	61.5	HIGH
1721667600000	506.133529426754	59.5	HIGH
1721671200000	494.866848753414	51.5	HIGH
1721674800000	522.962073842456	67.5	HIGH
1721678400000	516.786211425138	63.0	HIGH
1721682000000	517.801482037628	63.5	HIGH
1721685600000	507.315661892083	58.5	HIGH
1721689200000	500.593114614077	53.5	HIGH
1721692800000	487.315034998786	44.5	MEDIUM
1721696400000	473.778246784587	38.5	MEDIUM
1721700000000	473.772657728545	38.0	MEDIUM
1721703600000	460.431753605078	32.5	MEDIUM
1721707200000	469.329485490429	36.0	MEDIUM
1721710800000	482.020236526827	39.0	MEDIUM
1721714400000	475.525933917768	38.0	MEDIUM
1721718000000	471.002652923642	36.0	MEDIUM
1721721600000	472.573892000524	36.5	MEDIUM
1721725200000	467.897185429058	33.5	MEDIUM
1721728800000	450.133100755554	28.5	MEDIUM
1721732400000	448.016450701586	27.5	MEDIUM
1721736000000	443.600989937187	25.5	MEDIUM
1721739600000	469.658062084531	36.5	MEDIUM
1721743200000	534.682486221350	73.5	HIGH
1721746800000	563.140880062682	83.0	EXTREME
1721750400000	590.423674343919	87.5	EXTREME
1721754000000	575.707697605068	85.0	EXTREME
1721757600000	559.714290633277	79.5	EXTREME
1721761200000	565.770412730900	82.0	EXTREME
1721764800000	563.851097535836	81.5	EXTREME
1721768400000	543.968876283276	73.0	HIGH
1721772000000	524.013956548757	66.0	HIGH
1721775600000	506.220102509560	55.5	HIGH
1721779200000	497.532952330305	49.0	MEDIUM
1721782800000	498.302027163855	49.0	MEDIUM
1721786400000	495.673310937865	47.0	MEDIUM
1721790000000	484.175217299446	41.5	MEDIUM
1721793600000	470.955558920915	35.0	MEDIUM
1721797200000	460.358733283706	31.5	MEDIUM
1721800800000	444.397395192013	26.0	MEDIUM
1721804400000	427.540438392584	19.0	LOW
1721808000000	429.416121364542	20.5	LOW
1721811600000	411.743541267075	17.5	LOW
1721815200000	401.083288319426	16.5	LOW
1721818800000	388.370196296610	16.5	LOW
1721822400000	389.279467989709	17.0	LOW
1721826000000	411.502363133302	19.0	LOW
1721829600000	441.402194338066	28.5	MEDIUM
1721833200000	461.466323313918	37.5	MEDIUM
1721836800000	465.747300220067	39.0	MEDIUM
1721840400000	460.901064490062	37.0	MEDIUM
1721844000000	495.743845597915	55.0	HIGH
1721847600000	499.526428055207	58.5	HIGH
1721851200000	494.703111765549	54.0	HIGH
1721854800000	531.302889496581	75.5	EXTREME
1721858400000	524.145540246825	72.5	HIGH
1721862000000	513.706573086338	68.0	HIGH
1721865600000	502.484675008742	62.0	HIGH
1721869200000	558.214341079546	85.5	EXTREME
1721872800000	558.713316716722	86.0	EXTREME
1721876400000	550.862365522670	82.5	EXTREME
1721880000000	545.300767985337	81.5	EXTREME
1721883600000	521.636427414955	72.0	HIGH
1721887200000	504.590968313887	63.0	HIGH
1721890800000	491.891613434324	53.0	HIGH
1721894400000	495.442212474729	55.5	HIGH
1721898000000	479.639197297963	45.0	MEDIUM
1721901600000	470.286397490966	41.5	MEDIUM
1721905200000	451.115940527325	34.5	MEDIUM
1721908800000	454.014801918230	36.0	MEDIUM
1721912400000	466.742316066928	41.0	MEDIUM
1721916000000	531.482150633576	82.0	EXTREME
1721919600000	528.061997016892	80.5	EXTREME
1721923200000	529.207568658543	81.0	EXTREME
1721926800000	514.571313754361	73.0	HIGH
1721930400000	535.851934200478	85.0	EXTREME
1721934000000	541.569653186158	87.0	EXTREME
1721937600000	566.971820815718	95.5	EXTREME
1721941200000	584.138119328881	98.0	EXTREME
1721944800000	580.571110805390	97.0	EXTREME
1721948400000	553.094602890719	90.0	EXTREME
1721952000000	567.109274112811	95.0	EXTREME
1721955600000	550.972897390467	89.0	EXTREME
1721959200000	570.739119005434	96.5	EXTREME
1721962800000	571.143467647903	96.5	EXTREME
1721966400000	546.583219958767	88.0	EXTREME
1721970000000	524.898704247426	79.0	EXTREME
1721973600000	507.898796801182	70.0	HIGH
1721977200000	493.220311315383	57.0	HIGH
1721980800000	475.226003364284	46.5	MEDIUM
1721984400000	470.524145981121	43.5	MEDIUM
1721988000000	455.093849839612	36.5	MEDIUM
1721991600000	438.765717708211	28.0	MEDIUM
1721995200000	430.603880729053	23.5	LOW
1721998800000	458.125032105550	38.5	MEDIUM
1722002400000	505.166101240868	68.5	HIGH
1722006000000	504.032808295091	67.5	HIGH
1722009600000	492.137607702585	58.0	HIGH
1722013200000	478.384921438114	49.5	MEDIUM
1722016800000	463.421712763963	41.0	MEDIUM
1722020400000	475.441590423680	48.5	MEDIUM
1722024000000	484.474333964846	54.0	HIGH
1722027600000	507.369024395928	71.0	HIGH
1722031200000	487.756951224791	54.5	HIGH
1722034800000	463.338597565877	39.0	MEDIUM
1722038400000	441.300126311172	28.5	MEDIUM
1722042000000	428.307260146088	22.0	LOW
1722045600000	428.049598707082	22.0	LOW
1722049200000	420.017484513719	21.0	LOW
1722052800000	398.966235619882	17.5	LOW
1722056400000	380.282933075604	16.0	LOW
1722060000000	367.298437855918	14.0	LOW
1722063600000	360.669978009067	11.5	LOW
1722067200000	355.250693865562	10.5	LOW
1722070800000	349.904215732308	10.0	LOW
1722074400000	338.811057465714	8.5	LOW
1722078000000	330.303124789592	6.5	LOW
1722081600000	327.217187304621	6.0	LOW
1722085200000	375.415959640005	18.5	LOW
1722088800000	392.950533951433	22.0	LOW
1722092400000	401.318352954902	23.5	LOW
1722096000000	397.395613458124	22.5	LOW
1722099600000	393.138783925401	22.5	LOW
1722103200000	401.228870787872	24.5	LOW
1722106800000	448.398237160167	36.0	MEDIUM
1722110400000	547.148363077298	88.0	EXTREME
1722114000000	625.280622857491	100.0	EXTREME
1722117600000	602.982006939099	99.5	EXTREME
1722121200000	621.040435014877	99.5	EXTREME
1722124800000	636.337546799529	100.0	EXTREME
1722128400000	617.070579170991	98.5	EXTREME
1722132000000	586.801252087349	96.5	EXTREME
1722135600000	560.051162652538	89.5	EXTREME
1722139200000	570.297508177357	92.5	EXTREME
1722142800000	560.654829021831	89.0	EXTREME
1722146400000	535.579484091701	80.0	EXTREME
1722150000000	514.773806656579	72.5	HIGH
1722153600000	502.961391895395	65.0	HIGH
1722157200000	484.114149617152	53.5	HIGH
1722160800000	470.484567501642	46.0	MEDIUM
1722164400000	468.578526965810	44.5	MEDIUM
1722168000000	462.530060753966	41.0	MEDIUM
1722171600000	442.877913557255	33.0	MEDIUM
1722175200000	438.693776874594	31.0	MEDIUM
1722178800000	423.879935669265	27.5	MEDIUM
1722182400000	404.202797407175	25.5	MEDIUM
1722186000000	397.752597592377	23.0	LOW
1722189600000	397.913126335778	23.0	LOW
1722193200000	385.283617311794	19.5	LOW
1722196800000	373.491930360952	17.5	LOW
1722200400000	366.892506763741	15.5	LOW
1722204000000	363.514470566331	14.0	LOW
1722207600000	361.420579811593	12.5	LOW
1722211200000	404.883395539336	25.5	MEDIUM
1722214800000	411.741724429384	26.0	MEDIUM
1722218400000	465.831601255856	43.0	MEDIUM
1722222000000	468.865058309009	44.5	MEDIUM
1722225600000	449.731839858366	34.5	MEDIUM
1722229200000	448.150994154197	33.5	MEDIUM
1722232800000	442.040208857469	30.5	MEDIUM
1722236400000	422.451622510507	24.5	LOW
1722240000000	416.255078045470	23.5	LOW
1722243600000	400.872572470794	19.0	LOW
1722247200000	398.417388722880	18.0	LOW
1722250800000	390.773289528389	15.0	LOW
1722254400000	404.046625990647	20.5	LOW
1722258000000	448.729009848458	34.0	MEDIUM
1722261600000	506.019794859282	66.5	HIGH
1722265200000	514.754095226476	72.0	HIGH
1722268800000	574.128802710299	93.5	EXTREME
1722272400000	588.419602516706	96.5	EXTREME
1722276000000	592.239630908370	97.5	EXTREME
1722279600000	573.886800129201	92.0	EXTREME
1722283200000	550.587742977115	82.0	EXTREME
1722286800000	545.874332764464	80.0	EXTREME
1722290400000	536.954737567002	77.5	EXTREME
1722294000000	548.207970597931	81.5	EXTREME
1722297600000	581.757401269507	94.5	EXTREME
1722301200000	600.381872607400	97.5	EXTREME
1722304800000	595.433167421157	97.0	EXTREME
1722308400000	574.966512605360	91.0	EXTREME
1722312000000	554.461761704977	82.0	EXTREME
1722315600000	549.878778726050	79.5	EXTREME
1722319200000	533.144580245618	73.5	HIGH
1722322800000	511.741395942359	65.5	HIGH
1722326400000	494.702724803619	52.5	HIGH
1722330000000	492.573958746218	52.0	HIGH
1722333600000	479.075818835774	45.5	MEDIUM
1722337200000	461.306117490362	33.0	MEDIUM
1722340800000	470.998537669621	42.0	MEDIUM
1722344400000	481.720070693220	47.5	MEDIUM
1722348000000	506.332922786561	64.5	HIGH
1722351600000	528.766285444664	74.0	HIGH
1722355200000	520.004407912902	70.5	HIGH
1722358800000	521.004093061981	70.5	HIGH
1722362400000	520.182372128982	70.0	HIGH
1722366000000	518.183631262626	69.0	HIGH
1722369600000	548.349086172439	81.5	EXTREME
1722373200000	535.702722874407	76.5	EXTREME
1722376800000	517.352528383378	67.0	HIGH
1722380400000	493.720204927423	51.5	HIGH
1722384000000	498.033047432607	55.5	HIGH
1722387600000	484.416401187421	48.0	MEDIUM
1722391200000	474.386658245462	43.0	MEDIUM
1722394800000	454.566182656500	29.5	MEDIUM
1722398400000	465.947169609607	36.0	MEDIUM
1722402000000	479.000943208921	46.5	MEDIUM
1722405600000	477.093732979713	46.0	MEDIUM
1722409200000	465.472752052590	35.0	MEDIUM
1722412800000	456.367555477405	30.5	MEDIUM
1722416400000	440.441301514733	22.5	LOW
1722420000000	432.081208549395	21.5	LOW
1722423600000	414.789693653010	17.0	LOW
1722427200000	407.711858392081	15.5	LOW
1722430800000	430.318154221218	22.0	LOW
1722434400000	454.331143205416	32.0	MEDIUM
1722438000000	439.157490119315	24.5	LOW
1722441600000	442.489097967936	27.0	MEDIUM
1722445200000	450.354162398797	32.0	MEDIUM
1722448800000	461.250293656026	37.0	MEDIUM
1722452400000	551.589558394881	83.5	EXTREME
1722456000000	576.083161366676	93.0	EXTREME
1722459600000	579.320078411913	93.0	EXTREME
1722463200000	568.618644239634	88.5	EXTREME
1722466800000	554.295883936803	82.5	EXTREME
1722470400000	550.731892227031	80.5	EXTREME
1722474000000	562.743899925100	86.5	EXTREME
1722477600000	549.176478501879	79.5	EXTREME
1722481200000	537.028158608887	75.5	EXTREME
1722484800000	529.840432993967	72.0	HIGH
1722488400000	547.058973494398	79.0	EXTREME
1722492000000	531.740475387655	73.5	HIGH
1722495600000	513.373298574251	64.0	HIGH
1722499200000	494.553777247519	54.0	HIGH
1722502800000	476.857078872696	46.0	MEDIUM
1722506400000	465.103001810361	38.5	MEDIUM
1722510000000	448.631358823906	29.5	MEDIUM
1722513600000	436.936261765056	23.5	LOW
1722517200000	441.176528781838	26.0	MEDIUM
1722520800000	469.763919583135	43.5	MEDIUM
1722524400000	528.766496755768	71.0	HIGH
1722528000000	529.426032701785	71.5	HIGH
1722531600000	561.095601794514	87.5	EXTREME
1722535200000	565.253058809192	88.0	EXTREME
1722538800000	564.370697465678	87.5	EXTREME
1722542400000	628.701361932416	99.5	EXTREME
1722546000000	636.272693222957	99.5	EXTREME
1722549600000	647.681786564175	100.0	EXTREME
1722553200000	636.240230381019	98.5	EXTREME
1722556800000	641.201642496661	99.5	EXTREME
1722560400000	619.872953746899	96.0	EXTREME
1722564000000	660.110599907835	100.0	EXTREME
1722567600000	641.624128485847	99.0	EXTREME
1722571200000	611.400976451143	94.0	EXTREME
1722574800000	601.465192418919	93.0	EXTREME
1722578400000	617.431964388996	94.5	EXTREME
1722582000000	601.608252646925	92.5	EXTREME
1722585600000	597.957663172145	91.0	EXTREME
1722589200000	569.574972945563	83.0	EXTREME
1722592800000	566.533903449451	81.0	EXTREME
1722596400000	549.452910345919	73.0	HIGH
1722600000000	572.820559606925	84.5	EXTREME
1722603600000	603.061948206430	93.0	EXTREME
1722607200000	721.443237620257	100.0	EXTREME
1722610800000	759.197292075953	100.0	EXTREME
1722614400000	751.854628356242	99.5	EXTREME
1722618000000	726.757869187939	99.0	EXTREME
1722621600000	707.360878531657	98.0	EXTREME
1722625200000	691.620815779396	97.5	EXTREME
1722628800000	725.862186080868	98.5	EXTREME
1722632400000	778.300601360806	100.0	EXTREME
1722636000000	796.114844120748	100.0	EXTREME
1722639600000	773.228069540695	99.0	EXTREME
1722643200000	776.397493144931	99.0	EXTREME
1722646800000	784.761957920293	99.5	EXTREME
1722650400000	757.550389497415	97.0	EXTREME
1722654000000	751.753933104742	96.0	EXTREME
1722657600000	738.357223597261	95.5	EXTREME
1722661200000	700.910279054599	93.0	EXTREME
1722664800000	664.216687693557	92.0	EXTREME
1722668400000	637.258352858302	89.5	EXTREME
1722672000000	611.147041939852	84.0	EXTREME
1722675600000	589.065110372720	79.5	EXTREME
1722679200000	563.310459631811	70.5	HIGH
1722682800000	539.688283943825	61.5	HIGH
1722686400000	526.460549376409	56.5	HIGH
1722690000000	502.506224420951	48.0	MEDIUM
1722693600000	486.391494105169	44.0	MEDIUM
1722697200000	542.013530240514	62.5	HIGH
1722700800000	567.333992366191	73.0	HIGH
1722704400000	567.817278625749	73.0	HIGH
1722708000000	579.744615866767	77.5	EXTREME
1722711600000	590.691429019141	79.5	EXTREME
1722715200000	588.299184089202	78.0	EXTREME
1722718800000	620.720670939974	86.0	EXTREME
1722722400000	605.076337301404	83.0	EXTREME
1722726000000	593.685170351304	79.0	EXTREME
1722729600000	567.621943897639	69.5	HIGH
1722733200000	560.120376476379	65.0	HIGH
1722736800000	548.933206728066	60.0	HIGH
1722740400000	526.073691961776	50.5	HIGH
1722744000000	506.289856821649	44.5	MEDIUM
1722747600000	498.383438477246	42.5	MEDIUM
1722751200000	474.141764300299	35.0	MEDIUM
1722754800000	481.231638278850	38.0	MEDIUM
1722758400000	487.529378401789	40.0	MEDIUM
1722762000000	469.112994230233	32.5	MEDIUM
1722765600000	458.240637499502	27.5	MEDIUM
1722769200000	442.730591963823	22.0	LOW
1722772800000	432.021263966407	17.5	LOW
1722776400000	419.519745111664	15.5	LOW
1722780000000	503.775477603688	44.0	MEDIUM
1722783600000	514.491514917710	46.5	MEDIUM
1722787200000	527.963549566445	51.0	HIGH
1722790800000	611.351867454556	83.5	EXTREME
1722794400000	652.448162636373	91.0	EXTREME
1722798000000	675.259008162347	92.0	EXTREME
1722801600000	680.254793293608	92.0	EXTREME
1722805200000	689.200879486921	92.0	EXTREME
1722808800000	693.793673809284	92.5	EXTREME
1722812400000	698.836982822907	92.5	EXTREME
1722816000000	837.270055478413	100.0	EXTREME
1722819600000	1066.872194372812	100.0	EXTREME
1722823200000	1070.552751917612	100.0	EXTREME
1722826800000	1061.034698209211	99.0	EXTREME
1722830400000	1069.746505479981	99.5	EXTREME
1722834000000	1109.164612231411	100.0	EXTREME
1722837600000	1320.295711357739	100.0	EXTREME
1722841200000	1350.074589117901	100.0	EXTREME
1722844800000	1321.497832752336	99.5	EXTREME
1722848400000	1311.912273270027	98.5	EXTREME
1722852000000	1360.354253750739	100.0	EXTREME
1722855600000	1355.807521339972	99.5	EXTREME
1722859200000	1403.892698387117	100.0	EXTREME
1722862800000	1516.778934216608	100.0	EXTREME
1722866400000	1591.766153201136	100.0	EXTREME
1722870000000	1582.811427972484	99.5	EXTREME
1722873600000	1577.803468831592	99.0	EXTREME
1722877200000	1559.388935343621	98.5	EXTREME
1722880800000	1572.711154247648	98.5	EXTREME
1722884400000	1536.417500372816	97.5	EXTREME
1722888000000	1494.180536060472	96.5	EXTREME
1722891600000	1455.389069199010	96.0	EXTREME
1722895200000	1407.268421399081	95.5	EXTREME
1722898800000	1393.063534156289	94.5	EXTREME
1722902400000	1446.487567430840	95.5	EXTREME
1722906000000	1403.867026900066	94.0	EXTREME
1722909600000	1335.212239264347	91.5	EXTREME
1722913200000	1270.197079316893	89.5	EXTREME
1722916800000	1216.325859365687	89.0	EXTREME
1722920400000	1182.659726553852	88.5	EXTREME
1722924000000	1136.141174657148	88.0	EXTREME
1722927600000	1107.752519324495	87.0	EXTREME
1722931200000	1137.184482229888	88.0	EXTREME
1722934800000	1111.078447784896	87.0	EXTREME
1722938400000	1072.337130085975	85.5	EXTREME
1722942000000	1034.048763651262	83.0	EXTREME
1722945600000	1016.188137676172	82.5	EXTREME
1722949200000	1023.974699270731	82.5	EXTREME
1722952800000	1056.719363608536	83.0	EXTREME
1722956400000	1030.953694779355	82.0	EXTREME
1722960000000	1005.335573723687	80.5	EXTREME
1722963600000	965.740175600566	80.0	EXTREME
1722967200000	945.787305914812	79.5	EXTREME
1722970800000	919.959641206611	79.0	EXTREME
1722974400000	902.391095406139	78.5	EXTREME
1722978000000	875.677445734272	78.0	EXTREME
1722981600000	884.614771038966	78.0	EXTREME
1722985200000	864.420858821897	77.0	EXTREME
1722988800000	862.619368906048	76.5	EXTREME
1722992400000	889.796556841330	78.0	EXTREME
1722996000000	882.853945638378	77.0	EXTREME
1722999600000	848.400092378494	75.0	HIGH
1723003200000	823.907228637173	74.0	HIGH
1723006800000	804.563855163089	73.5	HIGH
1723010400000	769.045008365725	70.5	HIGH
1723014000000	753.677507768174	69.0	HIGH
1723017600000	744.271971499018	67.5	HIGH
1723021200000	727.302544963374	66.5	HIGH
1723024800000	709.166648894562	64.5	HIGH
1723028400000	694.854745402093	62.5	HIGH
1723032000000	682.736549301944	60.5	HIGH
1723035600000	689.755367208948	61.0	HIGH
1723039200000	737.279983836880	66.5	HIGH
1723042800000	729.188556419960	66.0	HIGH
1723046400000	711.432230961391	63.5	HIGH
1723050000000	723.779928749863	64.0	HIGH
1723053600000	740.295648124873	67.0	HIGH
1723057200000	720.467387544525	62.5	HIGH
1723060800000	716.812574148488	62.0	HIGH
1723064400000	716.711675995024	61.5	HIGH
1723068000000	731.117984852522	65.5	HIGH
1723071600000	715.366700220199	60.5	HIGH
1723075200000	711.926221633042	60.0	HIGH
1723078800000	836.274348659254	74.0	HIGH
1723082400000	835.054752326450	73.5	HIGH
1723086000000	818.257984303132	72.5	HIGH
1723089600000	801.460985424337	71.5	HIGH
1723093200000	765.420915036884	68.0	HIGH
1723096800000	751.883706819964	66.0	HIGH
1723100400000	719.884870618538	58.5	HIGH
1723104000000	687.628808431499	51.0	HIGH
1723107600000	676.462464972107	49.5	MEDIUM
1723111200000	656.072288902670	47.5	MEDIUM
1723114800000	639.545696838194	45.0	MEDIUM
1723118400000	701.006718492609	54.5	HIGH
1723122000000	764.934810028851	67.5	HIGH
1723125600000	841.610895026790	74.5	HIGH
1723129200000	844.667259667734	74.5	HIGH
1723132800000	821.883883977181	71.5	HIGH
1723136400000	805.670749407383	70.5	HIGH
1723140000000	774.944267306855	67.0	HIGH
1723143600000	761.276819642080	64.5	HIGH
1723147200000	734.292761096217	59.0	HIGH
1723150800000	816.893278160773	70.5	HIGH
1723154400000	895.300901149289	78.0	EXTREME
1723158000000	913.272265352911	78.5	EXTREME
1723161600000	895.538532113418	77.5	EXTREME
1723165200000	887.635779819602	76.0	EXTREME
1723168800000	847.711795546773	72.5	HIGH
1723172400000	816.753810150575	67.5	HIGH
1723176000000	806.549966568391	67.0	HIGH
1723179600000	779.082111813506	64.0	HIGH
1723183200000	751.076246683970	56.5	HIGH
1723186800000	731.577943349401	53.5	HIGH
1723190400000	716.000947395872	47.5	MEDIUM
1723194000000	701.279451153310	44.5	MEDIUM
1723197600000	699.188061785216	43.0	MEDIUM
1723201200000	681.631771657701	38.5	MEDIUM
1723204800000	673.465216539294	36.5	MEDIUM
1723208400000	693.624843929344	41.0	MEDIUM
1723212000000	757.630212220105	59.0	HIGH
1723215600000	760.542339918669	59.5	HIGH
1723219200000	757.860744210193	58.5	HIGH
1723222800000	746.727833909465	54.5	HIGH
1723226400000	732.447274344503	51.5	HIGH
1723230000000	725.608183319896	48.0	MEDIUM
1723233600000	708.064741654189	42.0	MEDIUM
1723237200000	728.074402964604	49.5	MEDIUM
1723240800000	726.419088467132	48.0	MEDIUM
1723244400000	716.317725005194	43.5	MEDIUM
1723248000000	736.295030361966	52.0	HIGH
1723251600000	720.888242478968	45.0	MEDIUM
1723255200000	699.439082301899	37.0	MEDIUM
1723258800000	669.479147851764	29.0	MEDIUM
1723262400000	636.444923005209	24.0	LOW
1723266000000	601.498857076266	18.0	LOW
1723269600000	573.156081570818	14.5	LOW
1723273200000	560.516361458617	11.0	LOW
1723276800000	540.229478497287	9.0	LOW
1723280400000	528.634515747481	8.5	LOW
1723284000000	518.624907479804	7.0	LOW
1723287600000	499.894556945532	5.0	LOW
1723291200000	481.866374306565	3.5	LOW
1723294800000	471.204490427525	2.5	LOW
1723298400000	456.761312539845	1.5	LOW
1723302000000	443.028361644141	1.5	LOW
1723305600000	434.883478669560	1.0	LOW
1723309200000	426.563230193163	0.5	LOW
1723312800000	431.922999465080	1.0	LOW
1723316400000	423.307070931860	0.5	LOW
1723320000000	408.599423008155	0.0	LOW
1723323600000	394.020892793287	0.0	LOW
1723327200000	379.819400450910	0.0	LOW
1723330800000	366.475157561559	0.0	LOW
1723334400000	366.012646307162	0.0	LOW
1723338000000	355.797457285222	0.0	LOW
1723341600000	341.597638907706	0.0	LOW
1723345200000	342.912093271441	0.5	LOW
1723348800000	338.018372323481	0.0	LOW
1723352400000	333.402774300375	0.0	LOW
1723356000000	321.716861850348	0.0	LOW
1723359600000	311.665657432466	0.0	LOW
1723363200000	309.375253330147	0.0	LOW
1723366800000	361.562735235137	4.0	LOW
1723370400000	359.601111289770	4.0	LOW
1723374000000	381.122460483358	6.5	LOW
1723377600000	388.827999020261	7.0	LOW
1723381200000	393.554570518814	7.5	LOW
1723384800000	406.743529767470	8.5	LOW
1723388400000	412.761849069793	9.5	LOW
1723392000000	405.436002707665	8.5	LOW
1723395600000	401.040573942832	8.5	LOW
1723399200000	388.630532946915	7.0	LOW
1723402800000	413.571209164993	11.5	LOW
1723406400000	484.180408510351	19.5	LOW
1723410000000	505.946093616754	23.0	LOW
1723413600000	529.564229786986	26.0	MEDIUM
1723417200000	514.845356230773	23.5	LOW
1723420800000	547.799259357146	27.0	MEDIUM
1723424400000	546.185026545921	27.0	MEDIUM
1723428000000	538.100381792641	26.5	MEDIUM
1723431600000	527.507497378881	25.0	LOW
1723435200000	512.371247566104	23.0	LOW
1723438800000	497.044729882811	20.5	LOW
1723442400000	497.577249176896	21.0	LOW
1723446000000	557.971731378546	31.0	MEDIUM
1723449600000	574.916607708650	33.5	MEDIUM
1723453200000	567.565421443746	32.5	MEDIUM
1723456800000	589.689319912050	33.5	MEDIUM
1723460400000	625.511511346904	34.5	MEDIUM
1723464000000	610.117831964982	33.5	MEDIUM
1723467600000	703.680843967483	45.5	MEDIUM
1723471200000	859.989355112663	73.0	HIGH
1723474800000	891.061544033187	76.5	EXTREME
1723478400000	889.114290887959	75.5	EXTREME
1723482000000	873.041841538820	73.0	HIGH
1723485600000	886.831710000332	74.5	HIGH
1723489200000	877.608016428880	73.0	HIGH
1723492800000	862.886015255389	71.0	HIGH
1723496400000	850.087014165718	69.5	HIGH
1723500000000	819.195084582452	64.5	HIGH
1723503600000	812.345435683706	62.5	HIGH
1723507200000	799.027904563441	60.0	HIGH
1723510800000	775.568768523195	59.0	HIGH
1723514400000	755.585285057253	54.5	HIGH
1723518000000	748.436336124592	52.5	HIGH
1723521600000	725.076597829978	45.0	MEDIUM
1723525200000	692.778269413551	33.5	MEDIUM
1723528800000	677.758393026869	31.0	MEDIUM
1723532400000	657.975650667807	29.5	MEDIUM
1723536000000	639.605961334392	29.0	MEDIUM
1723539600000	623.105535524793	27.5	MEDIUM
1723543200000	620.162282987307	27.5	MEDIUM
1723546800000	604.129262773928	27.0	MEDIUM
1723550400000	596.805744004362	26.5	MEDIUM
1723554000000	596.176762289765	26.5	MEDIUM
1723557600000	608.064136411924	28.5	MEDIUM
1723561200000	592.545269525358	26.5	MEDIUM
1723564800000	675.034893130690	35.0	MEDIUM
1723568400000	675.239543621355	35.5	MEDIUM
1723572000000	658.943861934115	34.0	MEDIUM
1723575600000	663.940728938821	34.5	MEDIUM
1723579200000	646.123534014620	33.0	MEDIUM
1723582800000	645.693281585004	33.0	MEDIUM
1723586400000	644.122332900361	33.0	MEDIUM
1723590000000	614.756451978907	30.0	MEDIUM
1723593600000	601.923848266128	28.5	MEDIUM
1723597200000	581.400716247118	26.0	MEDIUM
1723600800000	565.179236515181	24.5	LOW
1723604400000	560.602148192668	24.5	LOW
1723608000000	540.001994750335	22.0	LOW
1723611600000	521.830423696740	20.0	LOW
1723615200000	505.192536289830	18.0	LOW
1723618800000	486.807355126270	16.5	LOW
1723622400000	474.535401188680	15.5	LOW
1723626000000	454.397158246631	14.5	LOW
1723629600000	457.590218371872	15.5	LOW
1723633200000	466.155202773881	16.0	LOW
1723636800000	507.251259718604	21.5	LOW
1723640400000	591.869026881561	32.5	MEDIUM
1723644000000	608.485524961449	36.5	MEDIUM
1723647600000	633.593701749917	39.5	MEDIUM
1723651200000	654.208437339209	43.0	MEDIUM
1723654800000	631.943548957837	39.5	MEDIUM
1723658400000	635.826152603705	40.5	MEDIUM
1723662000000	621.217141703441	38.5	MEDIUM
1723665600000	598.651631581766	34.5	MEDIUM
1723669200000	576.555086468783	31.5	MEDIUM
1723672800000	579.429723149584	32.0	MEDIUM
1723676400000	563.470457210328	29.5	MEDIUM
1723680000000	549.222567409591	28.0	MEDIUM
1723683600000	578.692384023191	33.0	MEDIUM
1723687200000	577.914356592963	33.0	MEDIUM
1723690800000	547.641902550609	27.5	MEDIUM
1723694400000	530.974623796994	25.5	MEDIUM
1723698000000	525.676436382923	24.0	LOW
1723701600000	528.978119498428	25.5	MEDIUM
1723705200000	523.365396677112	24.0	LOW
1723708800000	516.239296914461	23.0	LOW
1723712400000	497.900775706285	20.0	LOW
1723716000000	480.615006012979	17.5	LOW
1723719600000	483.178219869195	18.5	LOW
1723723200000	503.936918449967	22.0	LOW
1723726800000	535.541424274969	30.0	MEDIUM
1723730400000	536.002751112471	30.5	MEDIUM
1723734000000	534.616840318723	30.0	MEDIUM
1723737600000	527.287066010243	27.5	MEDIUM
1723741200000	545.537989866654	33.5	MEDIUM
1723744800000	604.549562019036	47.0	MEDIUM
1723748400000	653.653164731962	56.0	HIGH
1723752000000	687.056510108251	63.0	HIGH
1723755600000	711.388187957661	68.0	HIGH
1723759200000	696.860460246400	64.5	HIGH
1723762800000	671.484713085943	59.5	HIGH
1723766400000	646.064376436947	55.5	HIGH
1723770000000	637.795492405736	53.5	HIGH
1723773600000	677.924385805327	63.5	HIGH
1723777200000	659.358358247803	59.5	HIGH
1723780800000	649.525618372960	57.0	HIGH
1723784400000	618.923788489177	49.5	MEDIUM
1723788000000	617.236375025665	49.5	MEDIUM
1723791600000	590.619491095260	43.0	MEDIUM
1723795200000	569.432384588456	39.0	MEDIUM
1723798800000	559.372928546423	36.5	MEDIUM
1723802400000	546.317719364536	34.5	MEDIUM
1723806000000	537.587882267069	32.0	MEDIUM
1723809600000	569.474462105135	41.0	MEDIUM
1723813200000	614.676286240483	52.0	HIGH
1723816800000	615.577980080448	53.0	HIGH
1723820400000	613.858124360416	52.0	HIGH
1723824000000	621.939686906101	56.0	HIGH
1723827600000	648.872566412808	63.0	HIGH
1723831200000	638.245954526179	60.0	HIGH
1723834800000	622.185529202880	56.5	HIGH
1723838400000	615.043705688389	53.5	HIGH
1723842000000	597.562012424933	48.0	MEDIUM
1723845600000	570.093297251723	41.5	MEDIUM
1723849200000	551.779490305171	37.0	MEDIUM
1723852800000	545.545240997659	34.5	MEDIUM
1723856400000	526.406295212112	27.5	MEDIUM
1723860000000	505.498702696961	23.0	LOW
1723863600000	482.763081075750	18.5	LOW
1723867200000	461.522860998910	16.0	LOW
1723870800000	435.842656641845	14.0	LOW
1723874400000	410.375324024571	11.0	LOW
1723878000000	396.305658022816	9.0	LOW
1723881600000	377.740968164043	6.0	LOW
1723885200000	369.695184723754	6.0	LOW
1723888800000	362.488385814915	5.0	LOW
1723892400000	345.546358256707	3.5	LOW
1723896000000	333.635904095513	2.0	LOW
1723899600000	327.869053802977	1.5	LOW
1723903200000	328.799835674193	2.0	LOW
1723906800000	327.642704554607	1.5	LOW
1723910400000	327.996797086421	2.5	LOW
1723914000000	322.339883008820	1.5	LOW
1723917600000	312.151319936761	1.0	LOW
1723921200000	301.826225655564	0.0	LOW
1723924800000	292.660066680166	0.0	LOW
1723928400000	292.077204774440	0.0	LOW
1723932000000	278.800261576266	0.0	LOW
1723935600000	273.464528606533	0.0	LOW
1723939200000	278.002776563209	0.5	LOW
1723942800000	278.874006808694	1.5	LOW
1723946400000	321.547292036644	5.0	LOW
1723950000000	369.386771176884	14.5	LOW
1723953600000	361.273430378535	12.5	LOW
1723957200000	356.482471065783	12.0	LOW
1723960800000	342.012294561084	10.5	LOW
1723964400000	328.054273521007	8.0	LOW
1723968000000	325.328968269506	6.5	LOW
1723971600000	336.462613393113	10.5	LOW
1723975200000	340.350998150748	11.5	LOW
1723978800000	337.968783997123	11.0	LOW
1723982400000	342.049585140185	13.5	LOW
1723986000000	347.067471915886	15.0	LOW
1723989600000	344.612652493323	14.5	LOW
1723993200000	336.568891600943	11.0	LOW
1723996800000	325.221113629447	6.5	LOW
1724000400000	338.098176941629	13.0	LOW
1724004000000	326.041164302942	7.5	LOW
1724007600000	322.023938281303	6.0	LOW
1724011200000	313.636514118353	5.0	LOW
1724014800000	326.012477395613	8.5	LOW
1724018400000	320.297300438784	5.5	LOW
1724022000000	370.776064693156	25.0	LOW
1724025600000	380.006345786502	26.5	MEDIUM
1724029200000	381.734463944609	27.5	MEDIUM
1724032800000	378.003430805709	26.0	MEDIUM
1724036400000	367.067471462444	24.0	LOW
1724040000000	360.005509215126	21.5	LOW
1724043600000	352.055115699760	20.0	LOW
1724047200000	347.215464578349	20.0	LOW
1724050800000	340.785788537038	16.5	LOW
1724054400000	332.765375070107	12.5	LOW
1724058000000	360.367848279385	24.0	LOW
1724061600000	364.605859116572	25.5	MEDIUM
1724065200000	376.884012036817	27.5	MEDIUM
1724068800000	368.228011177044	25.5	MEDIUM
1724072400000	408.068867521541	33.5	MEDIUM
1724076000000	420.221091270002	35.0	MEDIUM
1724079600000	409.369584750716	33.0	MEDIUM
1724083200000	405.393185839951	31.0	MEDIUM
1724086800000	429.986529708526	35.0	MEDIUM
1724090400000	436.344634729345	35.5	MEDIUM
1724094000000	424.648589391535	34.0	MEDIUM
1724097600000	425.723690149282	34.0	MEDIUM
1724101200000	416.350569424334	32.5	MEDIUM
1724104800000	407.846957322596	29.5	MEDIUM
1724108400000	416.065031799553	32.0	MEDIUM
1724112000000	482.031815242442	38.5	MEDIUM
1724115600000	486.529542725125	40.0	MEDIUM
1724119200000	467.356003959044	36.5	MEDIUM
1724122800000	448.580575104827	34.0	MEDIUM
1724126400000	449.317676883054	34.0	MEDIUM
1724130000000	456.580699962836	35.0	MEDIUM
1724133600000	438.889221394062	33.5	MEDIUM
1724137200000	422.939991294486	31.0	MEDIUM
1724140800000	411.729991916308	29.5	MEDIUM
1724144400000	398.692135350858	27.0	MEDIUM
1724148000000	386.142697111511	26.5	MEDIUM
1724151600000	381.725361603546	26.0	MEDIUM
1724155200000	373.580692917578	24.0	LOW
1724158800000	390.474929137751	28.0	MEDIUM
1724162400000	466.291005627912	41.0	MEDIUM
1724166000000	490.734505225918	45.5	MEDIUM
1724169600000	491.939183424067	46.0	MEDIUM
1724173200000	484.529241750919	44.5	MEDIUM
1724176800000	484.434295911568	44.5	MEDIUM
1724180400000	483.596131917884	44.5	MEDIUM
1724184000000	480.446408209464	42.5	MEDIUM
1724187600000	480.043093337359	42.5	MEDIUM
1724191200000	469.311443813262	42.0	MEDIUM
1724194800000	465.710626398029	40.5	MEDIUM
1724198400000	456.567010226742	39.0	MEDIUM
1724202000000	461.869366639117	41.0	MEDIUM
1724205600000	448.271554736323	37.5	MEDIUM
1724209200000	431.223586540871	36.0	MEDIUM
1724212800000	415.964758930809	32.5	MEDIUM
1724216400000	394.160133292894	28.5	MEDIUM
1724220000000	393.548695200545	28.5	MEDIUM
1724223600000	377.852359829077	25.5	MEDIUM
1724227200000	400.984334127000	31.0	MEDIUM
1724230800000	402.314024546500	31.5	MEDIUM
1724234400000	394.198737078893	30.0	MEDIUM
1724238000000	383.441684430401	28.0	MEDIUM
1724241600000	380.652992685372	27.0	MEDIUM
1724245200000	446.106350350703	42.5	MEDIUM
1724248800000	488.691611039938	56.0	HIGH
1724252400000	489.306495965657	56.5	HIGH
1724256000000	496.091746253824	58.0	HIGH
1724259600000	485.620907235694	55.0	HIGH
1724263200000	521.447985290287	62.0	HIGH
1724266800000	561.930272055267	72.5	HIGH
1724270400000	588.128109765605	78.0	EXTREME
1724274000000	586.797530496633	78.0	EXTREME
1724277600000	568.376278318302	74.0	HIGH
1724281200000	547.635115581281	70.0	HIGH
1724284800000	538.504035896903	68.0	HIGH
1724288400000	520.560890475696	62.0	HIGH
1724292000000	573.835112584575	77.5	EXTREME
1724295600000	572.575461685677	77.5	EXTREME
1724299200000	560.991500136700	74.0	HIGH
1724302800000	537.427821555507	68.0	HIGH
1724306400000	518.997262872971	62.0	HIGH
1724310000000	514.126029810616	61.5	HIGH
1724313600000	496.559884824143	59.0	HIGH
1724317200000	474.169893050990	50.0	MEDIUM
1724320800000	484.014900690205	54.5	HIGH
1724324400000	470.628122069476	50.0	MEDIUM
1724328000000	484.440399064513	56.0	HIGH
1724331600000	487.166084845620	58.5	HIGH
1724335200000	489.368507356647	60.0	HIGH
1724338800000	508.820756831172	64.5	HIGH
1724342400000	494.476417057517	61.0	HIGH
1724346000000	486.242387267694	57.0	HIGH
1724349600000	483.103645320002	53.0	HIGH
1724353200000	468.703384940002	48.5	MEDIUM
1724356800000	464.510286015716	46.5	MEDIUM
1724360400000	449.030979871736	44.0	MEDIUM
1724364000000	429.550195595184	40.0	MEDIUM
1724367600000	410.689467338385	36.0	MEDIUM
1724371200000	430.533076814214	41.5	MEDIUM
1724374800000	418.602142756056	38.5	MEDIUM
1724378400000	402.630561130624	33.5	MEDIUM
1724382000000	383.349806764151	28.5	MEDIUM
1724385600000	366.539106280997	21.5	LOW
1724389200000	368.843455832354	23.0	LOW
1724392800000	383.176066130043	29.5	MEDIUM
1724396400000	377.027775692183	26.0	MEDIUM
1724400000000	371.861505999884	25.0	LOW
1724403600000	369.992826999893	24.5	LOW
1724407200000	355.214767928472	18.5	LOW
1724410800000	358.613713076438	19.5	LOW
1724414400000	367.562733570978	23.5	LOW
1724418000000	363.008252601623	22.0	LOW
1724421600000	448.336234558649	51.5	HIGH
1724425200000	479.569360661603	59.5	HIGH
1724428800000	481.028692042917	61.5	HIGH
1724432400000	548.612356896994	82.5	EXTREME
1724436000000	562.840045690066	84.5	EXTREME
1724439600000	581.708613855062	87.5	EXTREME
1724443200000	564.136570008271	84.0	EXTREME
1724446800000	627.298243579109	94.0	EXTREME
1724450400000	661.062654752030	97.5	EXTREME
1724454000000	648.822465126885	95.0	EXTREME
1724457600000	628.049431903536	93.0	EXTREME
1724461200000	610.653043910426	88.0	EXTREME
1724464800000	583.342112202539	85.0	EXTREME
1724468400000	557.731961330929	79.0	EXTREME
1724472000000	529.308249807291	75.0	HIGH
1724475600000	503.793374821056	71.5	HIGH
1724479200000	494.972419476695	70.5	HIGH
1724482800000	479.574389514074	60.0	HIGH
1724486400000	469.004790263069	58.0	HIGH
1724490000000	457.240162387135	54.5	HIGH
1724493600000	445.558722216625	50.5	HIGH
1724497200000	437.154527772581	50.0	MEDIUM
1724500800000	427.293490074539	47.0	MEDIUM
1724504400000	419.772526497786	45.0	MEDIUM
1724508000000	406.595917462230	40.0	MEDIUM
1724511600000	400.639066214928	38.0	MEDIUM
1724515200000	407.907704342433	41.5	MEDIUM
1724518800000	404.750011175117	40.0	MEDIUM
1724522400000	412.353581805465	45.0	MEDIUM
1724526000000	395.714040247932	37.0	MEDIUM
1724529600000	382.455894515937	33.0	MEDIUM
1724533200000	399.766187764799	39.0	MEDIUM
1724536800000	401.190031495884	40.5	MEDIUM
1724540400000	399.012172103321	39.0	MEDIUM
1724544000000	404.918445524513	43.0	MEDIUM
1724547600000	401.024270844190	41.0	MEDIUM
1724551200000	385.651108641034	35.0	MEDIUM
1724554800000	371.468886595246	27.5	MEDIUM
1724558400000	357.963966124157	19.5	LOW
1724562000000	339.952254258146	14.0	LOW
1724565600000	330.934236096849	11.0	LOW
1724569200000	326.074647804217	8.5	LOW
1724572800000	318.633601532488	4.5	LOW
1724576400000	309.338344280167	3.5	LOW
1724580000000	299.757033974441	3.0	LOW
1724583600000	288.624388690552	2.0	LOW
1724587200000	278.008360926941	1.0	LOW
1724590800000	281.050620860731	2.5	LOW
1724594400000	274.525576513536	0.5	LOW
1724598000000	270.559463905426	0.0	LOW
1724601600000	267.490930769324	0.0	LOW
1724605200000	258.777292857230	0.0	LOW
1724608800000	253.593200510285	0.0	LOW
1724612400000	241.100829045265	0.0	LOW
1724616000000	234.393626970603	0.0	LOW
1724619600000	244.422653615560	1.0	LOW
1724623200000	252.821035500163	1.5	LOW
1724626800000	307.383818678722	10.0	LOW
1724630400000	329.663545915957	18.0	LOW
1724634000000	329.416149779102	17.5	LOW
1724637600000	330.022139080595	18.0	LOW
1724641200000	315.684843431981	11.5	LOW
1724644800000	311.321640329697	10.5	LOW
1724648400000	301.334380306147	9.0	LOW
1724652000000	310.531924569994	10.0	LOW
1724655600000	309.901072814994	9.5	LOW
1724659200000	307.372424756780	8.0	LOW
1724662800000	340.810108702725	22.5	LOW
1724666400000	340.195100938244	21.0	LOW
1724670000000	335.266879442655	18.0	LOW
1724673600000	347.440673768180	25.5	MEDIUM
1724677200000	351.137768499024	26.0	MEDIUM
1724680800000	378.870785034808	37.5	MEDIUM
1724684400000	393.094300389465	43.0	MEDIUM
1724688000000	395.108993218789	44.5	MEDIUM
1724691600000	417.044065131732	56.5	HIGH
1724695200000	426.133774765180	59.5	HIGH
1724698800000	427.567076567667	60.0	HIGH
1724702400000	423.462285384262	57.5	HIGH
1724706000000	436.072122142529	62.0	HIGH
1724709600000	433.138399132349	61.5	HIGH
1724713200000	430.757084908610	60.5	HIGH
1724716800000	429.274435986566	58.5	HIGH
1724720400000	436.576261987526	62.5	HIGH
1724724000000	428.213671845559	57.5	HIGH
1724727600000	419.412695285162	52.5	HIGH
1724731200000	403.126074193365	44.0	MEDIUM
1724734800000	386.288497465268	35.5	MEDIUM
1724738400000	389.517890503463	35.5	MEDIUM
1724742000000	376.009469753215	27.0	MEDIUM
1724745600000	372.087364770843	26.0	MEDIUM
1724749200000	375.888267287211	27.0	MEDIUM
1724752800000	380.603391052410	30.5	MEDIUM
1724756400000	376.538863120095	28.0	MEDIUM
1724760000000	375.921801468660	27.0	MEDIUM
1724763600000	376.584529935184	28.0	MEDIUM
1724767200000	385.549920654100	33.5	MEDIUM
1724770800000	395.617783464521	38.5	MEDIUM
1724774400000	399.959370359912	40.5	MEDIUM
1724778000000	401.519415334204	42.5	MEDIUM
1724781600000	391.482314238904	34.5	MEDIUM
1724785200000	386.019291793268	32.0	MEDIUM
1724788800000	377.003628093749	25.5	MEDIUM
1724792400000	517.846226087053	87.5	EXTREME
1724796000000	656.028638509406	99.5	EXTREME
1724799600000	655.826592901591	99.0	EXTREME
1724803200000	641.953264837192	98.0	EXTREME
1724806800000	635.399460205964	97.5	EXTREME
1724810400000	607.020927334109	95.5	EXTREME
1724814000000	588.976575381673	95.0	EXTREME
1724817600000	574.471105711553	92.5	EXTREME
1724821200000	550.808883875014	88.0	EXTREME
1724824800000	528.536820741084	85.0	EXTREME
1724828400000	546.534190688150	86.5	EXTREME
1724832000000	561.988891353282	89.5	EXTREME
1724835600000	599.546827685190	95.0	EXTREME
1724839200000	594.729197136248	94.5	EXTREME
1724842800000	582.819968769373	92.0	EXTREME
1724846400000	560.897113857275	86.5	EXTREME
1724850000000	572.083034296041	89.5	EXTREME
1724853600000	604.505674703467	95.0	EXTREME
1724857200000	615.762412224648	96.0	EXTREME
1724860800000	669.257954208602	100.0	EXTREME
1724864400000	666.153814622273	99.5	EXTREME
1724868000000	684.642827863539	100.0	EXTREME
1724871600000	708.125483016143	100.0	EXTREME
1724875200000	727.345091372133	100.0	EXTREME
1724878800000	706.670441988409	99.0	EXTREME
1724882400000	685.629696132094	98.5	EXTREME
1724886000000	652.549003551231	95.0	EXTREME
1724889600000	629.502646154714	93.0	EXTREME
1724893200000	617.823885715092	91.5	EXTREME
1724896800000	592.865036735442	88.0	EXTREME
1724900400000	562.746105540054	81.0	EXTREME
1724904000000	533.135669430050	75.0	HIGH
1724907600000	518.518835899332	72.0	HIGH
1724911200000	509.988919049380	70.5	HIGH
1724914800000	486.839710545852	65.0	HIGH
1724918400000	471.029731221149	60.0	HIGH
1724922000000	454.313321848210	56.5	HIGH
1724925600000	442.719513144766	54.0	HIGH
1724929200000	473.096690777283	60.0	HIGH
1724932800000	476.711212864620	60.5	HIGH
1724936400000	479.010411945718	60.5	HIGH
1724940000000	481.652525378167	62.0	HIGH
1724943600000	479.077344994012	60.0	HIGH
1724947200000	496.643248923011	69.0	HIGH
1724950800000	490.390159714225	66.5	HIGH
1724954400000	572.733719734637	83.5	EXTREME
1724958000000	586.617025467877	86.0	EXTREME
1724961600000	565.922952220172	81.0	EXTREME
1724965200000	540.671312775874	74.5	HIGH
1724968800000	560.273361863312	77.0	EXTREME
1724972400000	539.382407444504	73.5	HIGH
1724976000000	527.140806912753	70.5	HIGH
1724979600000	515.309320704700	67.5	HIGH
1724983200000	499.772940654364	65.0	HIGH
1724986800000	486.974873464766	61.5	HIGH
1724990400000	463.062382502997	52.0	HIGH
1724994000000	454.772212324212	51.5	HIGH
1724997600000	470.138482872482	54.5	HIGH
1725001200000	462.128591238734	52.5	HIGH
1725004800000	451.555120435967	51.0	HIGH
1725008400000	436.786897547684	48.5	MEDIUM
1725012000000	423.402119151421	42.5	MEDIUM
1725015600000	416.337682069176	40.5	MEDIUM
1725019200000	427.584990492806	45.5	MEDIUM
1725022800000	451.900348314749	53.5	HIGH
1725026400000	520.328894863695	75.0	HIGH
1725030000000	537.755402373431	77.0	EXTREME
1725033600000	573.865730775329	84.5	EXTREME
1725037200000	563.332464291377	82.0	EXTREME
1725040800000	576.851573984850	85.0	EXTREME
1725044400000	583.505032985932	86.5	EXTREME
1725048000000	567.226102058366	82.0	EXTREME
1725051600000	540.717094768482	75.5	EXTREME
1725055200000	521.601587999305	71.5	HIGH
1725058800000	498.265760285069	67.0	HIGH
1725062400000	491.818205978993	65.5	HIGH
1725066000000	468.724048409065	57.5	HIGH
1725069600000	446.400902094131	52.0	HIGH
1725073200000	423.200837658836	43.0	MEDIUM
1725076800000	403.000777826062	37.0	MEDIUM
1725080400000	383.936436552772	28.0	MEDIUM
1725084000000	364.840976799003	18.5	LOW
1725087600000	347.423764170503	15.5	LOW
1725091200000	334.264923872609	13.5	LOW
1725094800000	325.003143595995	11.0	LOW
1725098400000	322.617204767709	11.0	LOW
1725102000000	305.637404427159	7.0	LOW
1725105600000	296.427589825219	6.0	LOW
1725109200000	297.568476266274	6.5	LOW
1725112800000	296.135013675826	6.0	LOW
1725116400000	289.068226984696	6.0	LOW
1725120000000	282.141925057218	5.5	LOW
1725123600000	284.231787553131	6.0	LOW
1725127200000	283.693802727907	6.0	LOW
1725130800000	271.772816818771	4.0	LOW
1725134400000	266.217615617430	3.0	LOW
1725138000000	262.587785930471	3.0	LOW
1725141600000	252.624372649723	1.5	LOW
1725145200000	244.465488889028	1.5	LOW
